Adjusted
59.88834
60.130455
60.91489
61.006889
60.111088
60.348358
61.060154
60.832569
60.362885
60.658661
60.78957
61.109585
61.478104
61.33749
60.488949
60.605316
60.741089
60.222267
61.550842
61.250214
60.600471
62.35574
61.720547
62.462418
62.874569
62.923054
64.624985
64.654076
65.022598
64.780159
64.649223
62.641823
63.713413
61.769032
60.144691
60.775021
59.044003
59.882847
61.541134
60.954437
59.640408
59.053707
60.464706
60.9011
61.85146
62.394527
62.38483
63.073364
62.976387
63.921898
63.23822
62.515751
61.710842
61.211418
60.076809
60.600471
60.086498
62.501198
62.161789
62.098759
62.312092
62.573952
61.143536
59.572525
60.488949
61.526592
62.186031
62.36544
62.190876
60.27668
56.421066
57.858418
55.755798
55.993736
55.08569
56.523041
56.8144
58.237179
59.174381
57.843849
59.208378
58.834469
57.70303
58.110931
60.203842
61.20417
65.890144
66.963303
66.079521
64.865524
64.904381
66.366005
65.404549
64.690727
65.676476
65.851288
65.205437
63.57872
63.806931
63.530155
63.670959
64.501343
64.433365
62.690079
63.976894
64.175995
62.408432
63.437885
64.42849
63.91378
62.694927
62.947437
64.744125
63.972046
64.744125
65.564781
65.841576
63.607853
63.321358
61.869427
63.199944
64.025452
63.617546
63.942902
65.70562
66.953568
67.099258
68.177269
67.866501
69.061058
69.085335
69.706902
70.270203
69.792702
70.288658
70.906181
71.475044
72.287033
72.685745
72.272453
70.050415
71.654953
70.862427
70.36158
70.064995
70.740852
73.940216
74.406967
74.966141
74.499374
75.958046
77.105522
77.231941
77.193039
76.940216
76.045563
76.137947
75.603104
74.241661
75.180069
73.828377
75.073105
76.152519
76.390785
75.992065
77.533401
76.38105
76.361618
77.032578
78.053673
78.491249
78.632278
79.570702
79.497757
81.272476
81.680901
80.927246
80.616089
81.573929
83.528549
83.013138
82.108772
82.10392
83.674431
83.329201
83.674431
83.013138
82.308144
83.703606
83.805702
83.533432
84.889992
84.034225
83.368111
83.39727
85.021271
87.029366
88.035866
87.596832
88.726036
88.287987
89.456139
89.714111
90.11808
86.852142
88.307442
89.285805
88.789314
90.08403
87.772057
86.832664
87.114975
89.295517
87.480011
85.976013
83.513176
83.211395
83.449883
81.332619
82.481293
82.583519
83.415817
82.023773
81.71714
81.245003
82.408287
82.817146
82.349892
82.354736
81.0065
80.310486
80.310486
80.544113
81.347206
80.49543
77.896301
76.971512
77.540985
76.056465
77.078583
77.399834
77.750275
77.706474
78.850296
80.471115
82.023773
81.585716
81.897224
81.780403
82.335281
81.454292
81.692802
80.320221
80.096313
79.833481
81.210945
81.176865
81.283928
81.191467
79.560921
82.062706
83.011932
82.885231
82.329735
82.461288
83.674622
82.432053
80.658394
78.987038
81.48188
80.229584
80.950745
80.517082
78.81163
82.144577
81.613457
84.420128
86.003761
84.883057
85.141304
85.326469
85.501877
86.227936
87.670258
87.15374
87.723862
86.73468
87.904137
89.658333
90.847282
91.349167
92.299347
92.236015
93.34211
92.820732
93.09848
92.542992
92.119064
90.437973
90.208939
89.127213
90.618256
91.232224
92.172668
91.378403
92.74276
93.381096
92.387062
93.346985
93.614998
94.267952
96.070847
95.58844
96.460663
96.587364
98.088158
97.23056
95.437386
96.197548
96.431442
95.612816
96.119568
97.539352
98.661484
98.563919
99.96904
101.022873
99.861702
102.535355
100.974106
96.641609
95.685349
97.207581
95.626808
94.768135
94.709572
96.846527
101.120453
102.252373
99.266479
99.803146
101.130226
102.623169
101.383919
100.252014
100.01783
99.822693
99.422615
101.637634
101.169266
101.45224
102.193832
102.6427
104.086853
103.23793
102.828079
104.077095
103.794113
105.287064
106.672676
106.858078
106.057938
108.019264
108.92675
111.258873
111.268616
109.668343
110.790489
112.995773
115.122986
114.56678
110.283066
113.210426
112.624954
113.03479
114.030098
113.727615
113.415352
113.922737
112.927452
113.171387
113.737358
112.176094
110.897835
112.888428
110.812637
114.387863
112.873787
113.352425
113.459877
113.850609
113.264511
113.508705
112.16069
110.763794
111.594093
110.998238
106.905273
105.537704
109.220383
106.114044
104.170143
103.603577
105.283722
105.791679
104.218987
103.886848
101.522888
103.632851
102.988144
104.551102
104.795303
104.707405
103.808693
105.440018
106.866196
106.094513
105.879585
107.335083
105.215347
105.244644
102.187141
102.74395
99.061264
98.963577
99.647354
100.673042
98.973343
99.549675
102.78302
102.753723
102.548584
101.952705
99.383621
98.504456
99.774345
98.035568
99.520363
99.51062
96.726616
94.60688
94.812019
94.333374
92.88765
91.441917
92.369926
89.830139
87.749474
81.820053
81.898193
86.30085
89.335114
89.286179
90.793533
93.994217
90.118149
91.419975
90.14753
86.555336
89.560249
91.155685
90.264992
93.034996
91.34166
88.366119
94.062729
96.87188
97.439598
96.411835
96.656548
95.491776
93.818024
96.079048
94.307419
95.599449
96.245453
97.331917
99.583168
97.449356
94.689156
92.075775
84.881577
85.390556
88.385689
89.853874
91.02845
88.826157
86.320412
87.260056
84.950096
85.0186
84.539001
83.530838
83.658081
89.207878
90.490112
93.005623
93.044769
94.366158
92.05619
91.831062
92.330246
90.734802
90.118149
90.284554
84.842422
82.424789
81.906013
85.038193
85.605896
82.71843
83.256767
86.049904
84.86322
88.570404
87.609283
88.795967
88.619438
89.041161
90.551506
91.20858
86.402985
87.19738
87.315063
90.737839
94.454842
93.356407
94.337151
93.944847
94.101753
93.425064
91.404739
92.973923
95.053085
94.631355
93.474098
91.993187
89.325577
90.159203
89.845367
91.238007
88.39386
87.991768
87.344482
88.629257
88.746933
87.864265
86.863922
86.030296
84.529778
84.882843
84.059006
83.745186
86.206833
85.128021
88.913673
87.805428
88.933289
87.285629
87.128716
88.227142
89.600182
88.81559
90.365143
89.92382
89.462875
90.924171
93.042564
92.454124
92.228554
93.866386
94.729431
92.866028
94.770081
96.243805
96.283104
95.526604
96.027657
94.897797
95.988358
96.54837
95.02552
95.65432
96.735054
97.992607
97.216438
97.16732
97.64875
92.883728
93.414253
91.861938
91.861938
90.005051
91.773514
89.995224
89.140465
88.885025
90.191711
88.678703
88.875198
89.887154
88.678703
87.58815
87.440765
87.58815
87.136208
87.204979
88.197289
87.450607
85.849152
88.108856
87.548851
87.52919
88.826088
89.061874
87.961487
87.656929
88.501846
87.460419
87.254105
86.723564
86.536903
87.234459
86.792336
86.114426
86.517235
84.73896
86.01619
84.267357
84.169113
83.599258
85.200722
83.009789
83.805603
83.058914
82.734688
83.736839
81.953041
81.116287
79.245888
76.715942
76.125282
74.904587
75.131004
73.989082
72.049782
75.652756
76.528885
77.316437
75.987465
75.249138
75.544464
74.904587
76.469833
72.610893
75.081787
76.095749
78.684776
78.43866
78.684776
78.763535
79.157295
75.869324
75.53463
73.693748
68.181
67.295013
69.884048
74.609261
76.105591
77.090019
74.835686
76.499359
76.243416
75.692131
76.450142
75.731522
76.843903
75.94809
75.239296
76.046516
78.694626
78.418983
75.071953
75.327904
74.048157
71.902115
72.11869
71.656006
68.348358
69.037445
71.665848
72.443527
75.859482
79.393562
81.549431
82.464943
85.684006
85.939964
84.689751
83.951416
84.610321
85.951775
86.30687
83.653534
83.71273
82.637589
84.630051
84.265091
82.252907
81.572311
83.633812
84.353867
84.679367
84.896362
87.243896
85.290909
85.290909
84.107269
84.20591
85.399422
82.183868
80.576088
81.128448
83.633812
81.848503
83.988914
81.522995
81.503265
81.444092
83.97905
82.390991
80.901581
82.292351
82.903908
79.757416
79.885635
79.392448
75.151085
76.058548
77.311211
77.113953
73.86882
75.811951
76.245941
74.766403
72.300499
70.455994
69.292091
68.858078
72.685173
72.418854
69.528809
70.120628
69.647179
69.82473
68.729858
69.173729
66.402039
64.567398
64.626572
62.801804
62.062031
63.464443
64.542458
62.277634
60.309517
59.577656
63.049057
65.29409
60.912807
65.303978
65.343552
67.875412
70.23912
68.330345
66.42157
69.418243
67.687508
66.322662
67.677597
64.86882
65.066612
64.839157
66.955627
67.143532
70.041321
68.696281
68.943535
71.416046
67.27211
68.755615
67.746826
66.757828
64.028175
64.305092
66.263329
68.488594
70.62484
74.64019
69.784172
71.4655
71.47538
74.353378
73.957779
72.800644
74.21492
75.658875
74.798439
75.124809
75.065468
73.522621
73.483063
73.710526
74.620407
72.85009
71.781975
71.24791
69.536919
69.764404
70.43692
70.664406
72.662186
73.196251
76.657776
77.091896
77.121628
75.040199
76.754898
78.429939
78.667824
78.459694
80.204109
79.054375
82.047653
83.762352
81.165535
81.889084
82.047653
79.916672
78.638092
80.5411
77.983925
77.944283
79.024643
79.609421
79.787834
77.954201
79.976158
80.848358
79.698624
79.371552
80.204109
80.551018
81.760223
82.345009
81.571907
80.848358
80.640228
80.035614
79.777916
79.004807
80.551018
84.664307
84.604836
83.831741
80.838448
80.66996
82.245895
81.710663
79.470665
80.17437
82.454025
84.158813
82.860397
83.752441
80.342865
77.894722
81.026772
82.701828
82.681992
84.029961
82.02784
82.02784
80.888016
81.809776
82.166595
84.38678
83.262573
84.047127
83.520775
82.676636
81.474976
81.544487
80.928757
80.422279
78.207626
79.89592
79.23053
79.349709
81.137306
78.157974
79.339775
81.802704
83.659813
89.539055
90.035599
89.75753
88.804138
89.658218
90.571884
89.926361
89.638359
89.598633
91.098244
91.128021
90.542091
90.581818
90.105118
89.628433
89.558907
90.512299
89.449669
87.880554
87.94014
88.297661
94.176888
93.670395
94.772758
92.011894
92.33963
89.77739
87.84082
90.323601
90.34346
89.42981
89.77739
92.875908
91.972168
89.131874
88.645241
87.950066
93.312881
94.395363
96.04393
95.448067
94.484749
96.70932
96.470978
95.775795
96.619942
95.388489
95.636765
95.008018
93.993271
93.296875
92.650223
94.570282
94.421059
93.396362
93.137711
92.192596
91.665321
91.26738
90.33223
89.954185
90.690384
90.471512
91.605637
91.32708
92.948677
92.879044
92.948677
92.152802
90.939087
92.202553
94.082809
94.729462
91.864288
92.670128
95.177139
94.779198
96.50029
95.48555
92.988472
91.963783
101.991852
104.210365
103.205574
103.921852
103.43438
102.996651
104.389435
105.901604
105.284805
107.453568
103.673149
103.384644
103.464233
102.946915
102.628555
102.021698
102.598709
101.504372
102.011742
101.126335
100.75824
100.57917
