Adjusted
64.919342
64.544479
65.350395
64.78344
65.706505
66.254723
66.428085
66.582741
66.08136
65.66433
65.191086
66.526505
66.87793
66.896645
67.196556
67.463623
67.571396
65.598755
66.095413
65.706505
64.6007
65.861137
65.102058
64.834984
64.816246
64.647552
65.073944
65.294182
63.935341
65.181725
65.130188
65.312912
63.588631
61.889713
61.216736
62.270916
61.320282
62.440334
63.37212
63.37212
63.442711
63.809799
64.106285
63.743912
63.753319
64.633354
64.840416
65.480461
66.600517
66.934631
66.496986
66.402847
66.294609
66.360497
64.609818
63.988636
63.009762
63.080345
62.788597
63.033291
63.136845
62.915646
62.459145
63.014465
61.993248
61.861477
62.426205
63.37212
64.760422
64.120384
61.856766
63.320374
62.308559
66.191078
66.633438
67.55587
68.144112
68.228798
69.137077
68.205276
69.188858
69.245331
68.332344
69.875923
71.664253
71.41954
72.106628
73.302017
72.725594
72.824814
72.390121
74.091072
73.93045
73.495758
75.050247
74.209206
75.097488
74.440735
74.114708
74.10054
74.336792
74.228104
73.854828
72.579124
73.302017
72.555489
70.86869
71.473488
73.198074
72.890976
71.771172
71.322304
73.363457
72.683083
73.760338
73.977692
72.843712
70.911224
70.353676
69.304764
69.848129
70.400955
70.415092
69.17717
70.136337
70.438736
70.679703
72.016861
72.399559
73.958794
73.727264
74.667526
74.525772
74.176132
73.160278
74.114708
75.598328
75.201431
75.470749
75.187271
74.218651
74.99826
74.232841
76.151131
76.094444
75.806229
76.90239
76.713409
76.491325
76.269249
76.113342
76.753624
76.68721
76.52124
77.19471
77.009743
75.302315
75.216934
74.372704
75.397171
75.463554
75.956818
76.948097
76.013733
74.823257
73.874695
74.078674
74.088142
74.562408
75.382935
76.156013
75.529953
76.663506
77.645294
77.982025
77.246887
77.042923
78.351952
78.427856
79.589867
79.675217
78.864189
77.507744
77.531456
78.086357
79.039665
78.385162
79.234123
79.115562
79.034935
78.963783
81.055382
79.637276
77.21843
77.061905
78.129044
79.087105
78.793045
78.484772
78.835724
82.748596
83.365166
83.763557
85.428299
84.636253
85.115288
86.282028
85.79351
87.984703
86.158699
86.595047
86.675674
87.012413
86.946014
86.988846
85.485092
86.403542
86.684288
86.850838
87.854919
88.311768
87.988167
87.869194
87.921539
86.703323
87.236305
87.4552
87.650291
88.09761
87.816841
87.58844
87.398102
86.44635
87.060226
86.503471
89.387222
88.84948
89.154053
86.774712
87.52182
87.041176
86.798492
87.374298
88.14521
88.178513
88.806656
88.273697
89.263496
89.501427
89.358673
89.687012
90.253296
89.91069
90.134338
89.234947
89.596596
90.16288
90.476959
90.691086
89.349152
90.838615
90.748207
89.306335
90.167633
90.415085
89.063644
88.93515
86.417809
87.174438
86.812775
87.179176
87.878716
86.779449
84.166939
84.343002
84.333511
85.142479
86.865112
87.526566
88.111893
88.39743
89.096947
89.891632
88.792381
89.308006
90.114853
90.649582
90.005058
91.079269
92.206017
92.473373
94.44516
94.082306
95.57666
95.266327
95.552788
95.519379
95.629173
94.297142
94.153931
93.055832
92.898285
93.557144
94.511978
93.175201
92.974678
93.156105
92.244217
92.081871
90.907402
90.487274
91.098366
92.363564
93.881783
94.177788
94.230324
94.416496
92.177376
91.905228
93.428223
90.692574
89.670868
90.024162
90.009834
91.489861
95.228157
93.834038
93.748108
93.71946
92.864868
92.134392
91.413475
92.143936
92.439949
91.972069
93.184738
93.523712
93.323212
94.884384
94.026886
94.189781
95.526314
94.721504
94.161034
93.236481
93.586174
93.911926
93.744263
94.453255
94.060425
95.262833
94.908333
95.928711
96.287979
96.580215
96.92511
96.632881
97.658058
97.31794
98.170624
98.256874
98.587418
98.491615
97.523933
97.854469
97.255669
97.011337
97.528709
97.351486
97.998169
97.902359
97.260452
97.950272
97.044884
97.749077
100.671234
100.053276
99.789795
100.676033
99.823349
99.066452
99.555077
99.349098
99.65567
99.63652
98.472435
98.582626
99.497581
100.383812
100.00058
100.652092
100.747902
100.608971
100.05806
99.962265
98.199379
97.931107
95.023315
95.037674
96.105949
94.951454
95.277206
94.844597
96.238541
95.73864
95.906876
97.098923
96.887428
97.223892
97.944893
98.358253
98.09388
98.574554
98.319801
99.127312
99.237877
98.651474
98.747589
98.949471
98.627426
97.829536
97.872795
98.036217
98.016983
96.834549
97.315208
96.815315
95.978973
95.993385
96.382736
97.012413
97.651688
97.483459
95.978973
95.306046
96.392334
94.887871
95.387756
95.87323
94.565819
91.888527
91.888527
92.215385
91.936592
89.605354
91.100227
89.417915
88.225861
84.880447
85.356293
86.759834
87.399124
90.004333
91.893326
94.22934
93.109421
93.681389
94.138046
92.575867
93.916924
92.311523
92.455711
97.906441
96.310646
95.397369
98.656265
99.384445
99.775055
99.47126
98.984184
98.328346
98.969727
98.328346
99.01796
100.546646
101.588287
102.552757
103.849976
103.956078
103.874084
104.621544
105.523346
106.029686
105.672836
107.664474
107.881508
107.466759
107.461937
108.836311
106.502281
107.346199
106.005569
105.180946
104.48172
107.182236
109.472855
109.902069
110.72187
111.430756
111.454872
111.681519
112.101067
111.715279
111.469322
110.625412
107.770554
107.505341
107.982758
110.856895
109.453583
109.106369
109.463226
109.453583
109.082253
111.098015
110.027443
109.964737
111.565788
109.85865
109.86348
108.966522
106.931473
108.84597
107.481239
107.891129
109.419823
109.685051
111.093193
111.329483
109.381256
110.066032
110.056389
112.375946
114.179512
113.735855
114.248482
113.890617
114.441933
114.369392
114.504799
113.972832
114.055046
113.832588
114.954559
113.426346
113.81324
113.86644
112.183464
112.338226
110.103928
108.899727
111.085663
110.220001
111.26944
109.905655
111.056648
109.378517
110.776154
109.504257
109.04966
107.584312
107.023315
107.826126
108.566063
109.073845
108.551537
108.125954
108.435463
108.76432
109.359169
110.427948
110.988945
111.032463
110.244179
109.910484
109.659012
109.591301
110.108765
109.8041
109.489738
109.238266
107.995392
106.805702
106.762177
107.444069
107.149063
108.59507
108.827202
107.158745
107.386017
109.123009
111.131653
110.29715
108.919228
109.360733
111.010368
112.417412
112.043808
111.587738
111.073441
111.218987
111.199585
110.001175
111.175331
111.505264
111.054039
111.121956
110.743515
111.587738
110.995811
110.927879
110.670731
111.228706
112.504738
113.528488
113.169441
112.00985
112.562958
113.213112
114.319328
113.82444
114.668663
114.785103
114.474594
114.251404
114.513405
111.573181
111.3209
113.048157
112.475624
111.689621
111.650803
109.748878
109.302513
111.495567
113.077255
114.125259
113.513916
108.506813
108.487404
107.565552
105.003761
104.887329
102.500221
100.190742
99.356224
103.752007
105.353104
105.304588
105.168732
104.673851
103.383255
103.431763
102.438629
101.182625
103.801758
101.659721
101.289719
100.793152
101.942078
101.513672
101.815506
99.800026
97.239319
94.649376
89.829765
88.651627
90.647636
92.682579
93.578346
92.779945
88.943726
91.066307
91.504471
90.852097
93.86071
93.568611
94.094383
94.172279
91.67971
91.796547
92.565742
91.971817
90.735275
90.988419
89.206619
87.570877
85.78907
86.013016
82.283897
83.685974
85.380142
87.755859
90.219231
92.098389
90.939735
91.82576
93.247307
93.442032
94.77594
94.620171
94.75647
96.645378
98.086388
98.514801
98.709518
97.989029
100.890526
101.250763
101.19236
100.218712
101.581818
101.533142
101.513672
101.260506
101.445518
101.124207
100.491325
100.637886
99.397026
98.80101
99.279762
96.934807
98.517654
99.611969
99.37748
101.839676
100.999405
102.220749
103.051247
103.070778
104.018532
103.774269
103.315056
104.311653
102.924217
101.908081
103.530014
102.582253
100.393608
99.221138
98.566505
96.46582
95.488754
96.28994
97.921646
95.987053
94.081757
95.000214
96.495117
97.941177
98.087746
97.608986
98.273384
97.481949
96.553741
95.71347
96.05545
94.257652
93.06562
92.323044
92.283958
92.938599
90.916077
91.424149
89.79245
89.499313
91.37529
89.811989
91.02356
89.020561
90.456856
90.671806
89.978073
92.938599
93.39782
90.906311
92.928833
93.505302
90.740196
87.59404
88.903313
89.245285
87.222763
89.675194
91.473007
93.179657
92.875595
93.797585
94.866707
93.052147
93.846626
95.151146
96.279121
94.680351
97.671906
97.426689
98.378113
100.526138
101.389282
99.564919
100.32016
100.938095
102.997856
102.733025
102.752647
104.567192
107.303734
106.813316
106.803505
107.735298
107.048714
106.86235
107.303734
108.451302
109.755836
109.353683
110.942657
110.040276
109.294838
109.932388
108.490547
109.68718
109.540039
110.775902
112.041183
112.315811
113.139717
113.532059
114.316734
113.845932
108.147255
111.021111
110.442421
111.374214
110.824951
110.609154
108.274757
109.108482
107.401817
106.509247
106.499451
106.627426
105.770943
107.040909
105.751259
105.820168
105.042435
106.479767
105.347633
104.737251
103.998909
104.560043
104.776634
106.085968
106.637268
106.026901
106.912926
106.007225
106.302559
106.519135
105.997368
106.440384
106.09581
109.226418
108.714485
107.542976
106.017059
105.416542
104.963684
105.298393
106.499451
106.735718
106.38131
106.135193
109.492218
101.134117
97.156876
98.997818
100.897835
102.532059
102.896301
101.055351
101.370384
101.429451
104.668343
104.953835
107.011368
107.769409
106.942459
107.57251
107.602051
106.696335
108.320709
106.903076
105.977684
104.934143
105.101509
104.441917
103.841393
103.083351
103.043976
102.079201
102.709251
102.482834
102.807701
103.252419
103.143715
103.459946
103.509354
102.768166
103.232651
102.432167
102.372864
102.550751
103.499481
103.973831
105.189392
105.139969
105.495743
104.507492
106.335754
106.019516
104.635963
104.734787
105.782341
106.355522
105.475983
104.062782
99.674942
101.552628
99.971428
99.497063
100.050484
99.032585
99.892365
100.070244
101.256149
101.928154
102.056625
100.939903
101.246269
102.353104
100.860847
102.145576
102.22464
100.850967
100.38649
100.989319
92.628723
92.747314
91.21553
90.859756
91.037636
91.511993
91.571297
91.719536
91.472466
91.571297
91.294586
92.144478
90.148216
91.432938
92.253189
91.778824
92.035767
91.65036
91.294586
90.671989
91.719536
93.241432
94.025475
94.571327
96.13942
95.047714
95.3256
95.504242
95.633263
95.881378
94.472092
95.464546
95.891304
96.853981
97.389915
96.615791
97.260895
95.206505
94.521706
93.866692
95.266052
95.494316
97.439537
98.660263
98.551094
97.905991
96.318062
95.444695
95.375221
95.196579
95.494316
94.918694
95.146957
94.283516
93.975861
95.127106
93.956009
94.591179
94.045334
