Adjusted
42.79768
43.683731
41.710037
41.545952
40.725533
41.808483
41.733467
41.69128
43.679039
42.698273
41.581421
39.413433
39.94838
39.164726
38.789314
40.164253
39.408737
40.079781
39.896778
40.619431
40.980766
41.975601
42.543415
41.060535
41.210705
42.275936
44.167065
46.189598
45.95496
46.996723
45.809486
45.063358
46.180206
47.170357
45.832943
46.621304
48.864395
50.788376
49.591743
58.531216
55.837635
57.329914
56.264683
56.597851
55.190048
54.650417
53.758804
57.20322
55.80949
59.577675
59.174095
56.504002
57.939941
53.083069
52.684204
53.500713
54.537781
56.504002
55.335533
55.78603
56.311604
56.719868
56.949818
56.987343
58.085415
59.211651
60.422348
59.920238
60.919765
59.277344
60.071171
61.597694
62.471352
61.982872
63.020939
64.542809
64.467644
64.467644
61.884224
63.763062
62.959869
60.291912
61.287689
59.582668
60.005394
62.255322
64.76355
63.420181
65.66069
65.054787
63.88052
65.078262
63.349731
63.866402
66.224342
65.712372
67.361031
65.195663
64.209312
63.396706
62.532448
63.133652
60.028885
60.418758
59.812813
58.276855
58.286255
61.668163
60.503288
61.949989
60.338902
60.306004
60.395245
61.207855
60.794502
62.006348
62.485458
61.203156
61.254822
63.664421
61.273594
60.047657
59.272644
61.151493
61.625893
61.785606
58.511711
56.698639
54.232658
55.115719
52.226997
54.716476
55.688763
55.914227
52.416065
50.986713
49.190609
50.022831
51.264111
50.04163
48.438309
47.573181
48.9226
47.902302
47.02306
49.439785
47.267548
47.248741
43.858715
44.573399
46.068584
44.96365
44.131432
44.8367
44.808487
46.820877
45.631317
44.949554
44.545189
46.961929
49.651394
49.985214
48.729832
48.057461
50.666973
51.329937
49.529137
49.096561
45.095314
44.24897
43.938648
45.034184
43.393238
39.678787
41.291512
41.644161
42.702076
40.130165
40.943581
41.757008
43.496685
45.607803
44.98716
44.737976
44.554588
45.551376
44.441753
39.88097
42.062614
42.194279
36.961136
37.586468
35.616405
33.458267
33.679245
30.261017
28.018244
33.735668
33.354832
28.81596
32.551624
32.476257
35.349834
34.087353
31.105417
31.237307
31.030027
29.673332
31.81204
34.190987
36.259029
38.119797
35.698441
39.646099
38.539059
36.353249
37.629864
38.20459
37.130531
35.882172
40.02766
37.983181
37.898384
38.878231
36.40506
30.606068
35.194386
39.401138
39.580139
41.676456
40.051216
35.849186
37.695827
37.68169
32.405594
32.00518
32.537491
33.164032
34.704464
33.946033
32.019318
32.570473
33.451389
32.787182
30.544827
30.601353
28.811255
29.833494
29.612087
30.276308
31.157232
31.006483
31.364504
33.159332
33.291225
33.503208
32.349075
32.791885
31.345659
29.946552
31.600044
29.921978
30.219357
30.082474
28.666384
30.832996
30.077757
31.42304
32.098061
31.465523
33.023224
32.3671
31.989475
31.503277
32.046124
32.371822
32.612556
32.291576
33.391396
31.342791
30.37985
30.25712
30.077757
26.546967
26.726334
26.348719
26.013573
24.064091
25.173361
24.559715
24.267057
23.620378
21.519844
22.676319
24.120733
24.470034
24.5786
23.799757
24.975105
25.489622
27.76008
27.845051
29.039289
29.785091
29.270578
29.851177
29.242254
31.191746
30.247675
29.945578
29.261143
27.996099
26.745218
25.84836
26.967081
28.477571
29.80397
28.652218
27.363577
27.873371
28.959036
29.251699
28.634256
28.028641
27.716372
28.426079
26.481487
26.926231
26.665998
28.445005
29.888069
29.533215
29.992155
31.104027
30.034739
31.264894
34.084793
33.59745
36.682312
34.785034
36.370049
34.884399
34.657295
33.271004
33.763069
32.291603
33.61639
34.075329
34.274048
33.001316
32.736351
32.774208
32.301071
34.354481
34.628902
36.299076
36.057774
34.335564
34.638359
34.780308
34.870193
35.319675
35.603577
36.474129
36.724892
36.076691
34.9459
34.657295
34.113186
33.081741
31.927294
31.837406
31.851587
32.471397
31.965134
31.681259
32.135468
31.71911
30.389593
29.632578
28.662642
29.225674
29.627838
29.57107
30.20034
30.597769
31.52483
32.838371
32.999611
34.284679
34.422192
33.857887
35.000729
35.418022
35.233078
34.825268
33.620804
34.569199
35.105045
36.347462
36.72681
36.997105
37.091949
35.436985
36.13406
34.977009
35.180916
35.835308
35.418022
34.066555
34.298908
35.005451
34.882183
35.939648
35.958599
35.28524
35.081352
34.597656
34.735172
34.142418
33.488029
33.156086
33.080223
33.416904
34.920105
35.299465
36.428066
36.015511
36.556099
37.869633
39.467693
39.154724
38.818043
38.542995
39.84705
38.984013
37.959736
37.433369
37.997665
38.713699
39.600456
38.433949
38.296417
39.126263
40.107872
40.169502
42.531029
42.48835
42.95306
42.502571
43.431137
44.238583
44.081837
44.813286
44.841782
44.143581
43.435879
42.348206
41.255772
41.213032
40.025604
40.771313
38.785934
38.933174
39.42239
40.514828
41.811489
42.913418
43.8871
43.307644
42.865917
42.205719
42.03474
42.998909
42.737682
42.14872
41.284275
41.070541
41.882744
42.058483
42.609444
41.431515
41.08004
41.934982
41.365025
41.255772
41.35553
41.450516
40.491089
40.700073
41.165535
40.871067
42.932415
43.602119
44.31934
43.94886
44.148338
44.974785
46.437691
47.444618
47.772358
47.463615
47.150139
46.931652
46.214458
47.677353
47.093143
47.249889
46.80817
47.045654
46.613426
45.32151
46.503605
46.617783
46.080257
46.308571
45.823353
45.947041
44.738796
45.176422
44.305916
43.949146
43.530537
43.012028
45.452324
46.156349
46.237209
44.191757
44.172707
43.563839
44.971874
41.975025
43.316471
43.278419
44.153683
44.172707
44.876728
45.019444
43.815952
42.769424
44.087097
44.343975
44.738796
45.024204
45.109829
45.580761
45.285835
46.322838
46.318089
46.64156
47.017353
46.513111
46.417988
46.089764
45.894711
45.576004
44.372513
43.620914
43.525776
44.781601
44.03476
42.536343
42.617207
44.22028
44.401043
44.210762
45.466606
46.508362
46.322838
49.348248
50.879974
49.8382
50.984631
51.079758
52.063484
52.6399
51.196472
51.444187
53.121048
53.292542
53.835617
54.173847
53.583134
51.749065
52.125408
53.001942
53.411633
54.097622
52.516037
50.100803
48.76693
48.038078
50.729626
49.895962
51.629978
51.487057
50.539074
49.176624
48.990845
48.700245
45.87056
47.91898
46.380276
47.023388
47.514053
50.739151
49.943596
48.033321
51.329861
52.273094
49.062283
48.180984
50.191322
49.452923
51.815758
52.335011
51.901516
52.573204
52.587502
52.430283
52.506516
52.692303
50.710579
50.896347
49.824505
52.296894
50.219891
47.752243
46.861423
47.199654
46.847137
47.566467
49.448177
50.600998
50.291351
50.277058
50.882065
50.874897
50.660217
48.794865
48.666058
49.687
48.861649
49.23378
48.818737
49.481857
47.974308
47.974308
47.983845
46.514488
48.904598
48.518173
49.138374
48.871201
47.354115
47.678516
48.041096
46.347496
45.493546
44.925831
44.887657
45.398132
44.534626
43.661583
43.61388
43.76178
42.2733
41.724682
41.323929
42.650196
41.772373
41.443199
42.907814
42.693134
43.093872
42.321003
43.065243
42.635876
43.985985
44.028934
43.985985
43.690208
43.413513
42.511837
41.853474
42.755146
43.108181
42.778996
43.943058
43.532776
43.785633
44.758862
44.353336
45.879967
45.665276
46.433372
47.00108
47.020172
47.449535
47.497242
47.187149
47.18475
47.308987
47.801147
48.41753
47.533569
47.839378
47.208645
46.496693
46.568359
45.751301
45.756065
45.364262
45.736961
45.904194
46.70216
42.353992
42.186756
42.339653
42.745804
43.954689
44.857758
44.967667
43.98336
44.164925
43.505539
43.08506
44.012024
44.418167
44.198383
42.382656
42.908257
42.487778
42.631134
42.50211
43.782669
44.848209
44.790863
45.096676
44.298714
44.055023
44.069359
43.362194
43.338295
43.792229
43.061165
43.247524
43.801781
43.701443
43.792229
44.055023
43.696659
43.061165
42.994267
43.572441
43.840019
43.677547
44.126709
44.026356
44.117146
44.35128
45.039352
45.369038
46.219551
47.136059
46.834541
48.136295
49.237053
48.547886
48.509594
48.681892
48.686668
47.796509
48.949898
49.414127
49.069542
50.916889
51.39069
51.323689
51.232761
51.103539
50.534019
50.136799
49.749146
49.887928
49.438053
50.203796
49.557705
49.2897
49.878357
52.113361
51.840553
54.745594
52.725941
53.482121
53.750122
51.653927
52.017651
53.166252
52.34787
51.964993
50.825951
50.634521
49.21312
50.562737
50.983891
50.462234
50.007576
52.012856
51.653927
53.314613
54.25264
54.592442
55.300751
56.253139
56.683861
57.272526
57.042805
56.717369
56.659939
56.650364
55.956417
54.94659
54.874813
54.874813
53.922413
52.276073
53.014183
53.066902
53.220276
52.659515
52.467789
53.594124
53.618092
52.884769
53.546185
53.565361
53.670807
54.183647
53.17234
51.835129
50.938854
50.013836
51.494835
53.354473
53.129223
51.135372
50.574596
50.536263
50.181576
50.617729
51.101826
50.799873
51.212044
49.965912
50.833412
51.379807
51.394188
51.835129
52.309624
51.854301
53.157967
52.990223
52.27129
51.787205
52.213772
53.095657
51.605068
50.186378
50.339756
49.304482
48.700573
49.007328
48.360283
48.978569
48.571182
48.005615
47.099758
48.087086
49.084011
49.414722
50.109695
49.405132
49.481819
49.016911
49.630402
48.849152
47.454426
47.396908
47.497719
46.427174
48.577869
48.736294
49.941265
49.835648
50.675766
51.160633
50.987801
51.160633
49.960468
49.653221
48.966736
48.784306
47.627346
47.036873
44.228485
46.047928
42.533836
43.618797
41.760937
44.713352
45.198219
46.225548
45.404636
45.126205
42.068165
42.039375
41.453701
42.711475
43.167542
42.370625
43.13393
43.950039
44.262081
44.449314
43.887627
42.41383
41.746536
43.52758
42.845871
40.959236
41.338482
41.645721
42.125786
43.397957
43.282745
42.130592
41.823353
40.051903
36.845055
35.390453
36.811459
37.737991
35.664112
35.419258
34.089489
32.84132
35.36166
36.869061
37.704384
35.956947
38.12204
38.472481
38.861347
38.587162
40.395798
39.159576
41.377052
42.266945
42.012009
43.589741
43.811001
42.098579
42.05048
44.657585
45.783161
43.017323
41.309708
46.19685
48.116104
48.909775
48.664459
49.020416
47.250278
48.120922
50.030552
49.915104
49.236874
48.433571
46.668243
47.062679
46.182411
45.686966
44.065945
43.710003
45.980389
47.250278
49.900684
49.318645
49.333073
49.116615
50.453846
49.559151
48.404713
49.905483
48.606739
47.38015
44.816334
45.427212
46.985722
45.970768
47.125202
47.226219
47.298374
47.269505
47.625465
46.389248
47.163681
47.384964
48.799145
48.866489
49.13586
49.270554
49.145493
50.756878
49.626488
50.045628
49.640949
49.968548
50.763458
50.623753
49.698753
50.87426
50.368408
51.457195
50.464764
50.161263
50.734547
51.134426
51.018787
51.298218
52.555626
53.02293
53.538414
53.678131
54.174347
53.875656
54.622391
54.800632
55.325752
56.665073
55.089699
55.715992
55.720818
56.125496
56.631348
55.70153
56.178486
54.85363
56.323002
54.872906
54.535671
54.304417
54.506767
55.118599
55.3932
54.791012
56.294109
55.248676
55.706345
56.26038
56.554253
55.263123
54.829544
53.162643
53.827473
54.034637
53.610676
52.815765
52.5219
53.523968
54.607929
54.709103
53.244549
52.598976
51.760708
50.103436
49.597595
50.775036
49.862999
49.592762
50.572357
50.268353
50.167007
49.718235
49.993294
50.403465
51.358932
52.367481
52.608765
52.989994
53.675224
52.73423
51.976612
50.808823
50.557877
50.181492
50.717129
51.397545
50.297306
48.757938
47.874851
47.749374
46.972454
46.475418
48.352581
48.897881
49.07642
48.637291
49.100552
50.601311
48.733803
47.918285
44.236347
43.623489
44.332859
45.804665
46.060421
45.302799
44.361805
45.442745
44.733372
45.582684
46.634674
45.712978
46.301689
44.84919
41.731853
42.281967
40.969418
40.515797
41.369934
41.094872
43.483551
42.918949
45.790188
44.395584
43.7393
44.149479
43.116802
44.337677
43.93716
44.928261
45.078125
46.045059
46.750904
47.500278
47.974072
46.992641
46.17075
46.262611
47.098999
48.834637
48.133614
47.384243
48.563889
46.470501
51.60973
51.121426
52.571804
52.165703
52.895725
53.176132
52.842545
53.350178
53.093945
53.659595
53.756298
52.973083
52.586315
52.653999
51.735428
52.653999
52.77969
52.610485
52.23822
51.193932
52.359089
52.852207
52.475128
54.346127
54.573341
54.341282
54.355785
54.6217
55.685318
56.86496
56.275135
56.023731
54.90694
54.89727
55.090649
54.732891
54.350948
53.471046
54.728054
54.172081
55.206688
55.665977
53.703114
53.867485
53.137455
53.093945
53.68861
52.939236
53.098789
52.59116
53.385265
55.075199
55.801525
55.564262
54.750771
54.285915
53.341686
53.603168
54.436016
55.244671
56.406799
56.59565
55.782154
56.561745
59.065186
58.106419
56.058155
55.452888
55.569099
55.820896
54.89119
56.247009
56.493965
57.433346
56.847443
57.205757
57.617355
56.484283
55.724045
56.339008
56.963657
56.953976
56.769962
56.74091
57.486614
57.312294
56.823231
57.007236
57.491447
58.464733
57.384918
57.617355
58.576111
60.004559
59.292744
60.222462
59.835075
59.447708
58.856956
58.895702
57.433346
