Adjusted
27.352364
27.045349
26.578842
26.714409
26.004684
25.928923
25.960823
25.199263
25.749502
24.820473
24.549343
24.975979
24.744717
24.525419
25.49033
25.430521
25.119514
25.717607
25.733551
25.474379
26.064489
26.790165
26.483145
25.653801
25.777411
25.653801
25.665771
25.837214
25.94487
26.144234
25.593996
25.458429
26.012653
25.598671
25.723276
25.875999
26.527121
26.430664
26.197544
25.675037
24.911377
25.188704
24.63003
24.814919
24.376816
23.540813
23.110746
24.007042
24.043217
24.344662
23.717657
23.311716
24.091444
23.472481
23.729715
24.336628
24.541607
24.02714
23.946762
23.82618
24.320547
25.136463
25.373592
25.506231
26.048826
25.638865
25.671017
25.429863
25.602697
25.393688
25.204782
25.333399
26.49497
26.024723
26.691919
26.269884
26.028734
25.429863
25.590631
26.06089
25.49015
25.052061
24.666203
25.084198
25.261053
25.417809
25.453981
25.224878
25.577484
25.16004
25.532894
25.780127
26.323195
26.594742
26.84601
26.213776
26.177292
25.699062
25.804436
25.31809
25.216774
25.678799
25.699062
25.545059
25.322147
24.884443
25.070869
25.577484
24.815544
24.673697
24.458893
24.317045
24.219772
25.115456
25.070869
24.961447
24.592636
24.710167
24.30489
24.560217
23.948236
23.944185
23.182249
23.161989
23.251146
23.307884
22.554062
22.545954
22.554062
22.817495
22.156874
22.464893
22.460846
22.347368
22.6108
23.133615
24.738541
24.633169
24.710167
24.969549
25.200567
24.722326
24.511581
24.150875
24.422419
24.993872
24.576424
23.968496
23.632116
24.519686
25.111397
25.050091
25.887957
26.308939
26.259886
25.924744
25.822561
26.39068
26.259886
25.785778
25.924744
25.540552
25.524206
25.070528
25.234016
25.307581
25.957439
25.691774
26.684948
27.273502
26.787132
26.603212
26.913828
26.407028
26.517376
27.248976
27.698555
27.232628
27.526896
27.179499
27.510551
27.371599
26.484684
25.430206
24.416586
24.996962
25.111397
23.56238
23.83621
23.672724
22.761295
22.524242
22.344404
20.705462
20.832163
19.319927
18.923468
20.84034
20.546062
18.183695
20.881207
19.687759
20.64007
20.296741
19.086954
18.943907
18.437103
17.934381
19.556978
19.565149
20.10874
20.264057
20.447973
21.056955
19.7082
18.460171
19.344538
19.030462
18.956074
18.261799
19.993353
18.753576
18.228743
18.327925
17.022032
15.282219
15.918634
17.228657
17.575796
18.137825
18.150223
16.360821
17.274124
17.807219
17.385696
17.976656
18.93128
18.385775
18.493225
17.608856
18.137825
17.997316
18.989134
18.389915
17.646049
17.133612
16.410412
16.088074
16.046749
16.27817
16.046749
16.724495
17.534472
17.997316
17.885736
18.608938
17.827881
18.261799
17.898144
17.596457
17.232792
16.641838
17.112951
17.121214
16.364962
16.720356
16.236849
16.203781
16.055012
16.170725
16.906317
16.274038
15.530179
15.492984
15.290485
15.071463
15.563238
16.166588
16.224447
15.451655
15.439263
15.257425
14.964018
14.207755
14.308489
14.031469
13.712477
13.045114
13.63273
13.422866
13.196215
13.036717
12.608596
12.507861
12.977956
11.953822
12.348367
12.381944
13.720873
13.813213
14.413421
13.850989
13.825807
14.258124
14.686247
14.732413
14.568721
15.529898
15.357809
15.47953
16.247625
15.445953
15.475335
15.487923
16.566628
17.649513
18.703032
18.581312
17.96431
17.993692
18.875116
18.942278
18.522551
18.65266
19.353609
19.009432
18.128014
18.316883
18.50157
18.237133
19.080786
18.480572
18.148993
18.518349
18.48897
18.476379
19.517298
19.210901
19.278059
18.568932
18.989315
18.488253
18.551943
17.787621
18.008423
17.919254
18.717554
18.963833
19.32052
18.696318
18.951096
19.116703
18.602903
18.721796
18.883156
19.54982
19.375723
18.938358
19.108208
19.125191
18.806725
19.329018
19.214365
19.299288
19.163408
18.675091
18.288675
18.360863
18.233471
18.182516
17.689951
17.626257
18.246214
18.615641
18.500994
18.624132
18.641115
18.590158
17.898016
18.267448
17.672966
17.757893
17.881037
17.808847
18.500994
18.738781
19.575294
20.921358
21.0445
21.422424
21.413929
21.549814
22.28017
22.318384
22.424547
22.314138
22.029634
23.103941
23.354479
24.127296
24.220709
24.250431
24.070425
24.087564
23.611818
23.637531
23.800404
23.958992
23.393232
22.703175
22.694603
22.900331
22.780327
23.380367
23.208927
23.268934
23.033203
23.654676
23.976128
23.744684
23.178936
23.114635
23.191788
23.526094
23.740402
24.198999
24.42617
24.559032
24.820477
25.463387
25.669125
25.407669
25.566254
25.583391
25.767696
25.309088
25.08193
24.709047
25.184792
25.176218
24.94906
24.241863
24.113281
24.661901
24.871916
24.803335
25.381956
25.609119
25.763407
25.990572
26.37203
26.607761
26.273451
26.560617
26.234871
25.574827
26.007713
25.433382
24.94906
25.287659
24.537603
25.034784
24.186148
24.640472
24.850481
24.713329
25.369087
25.433979
26.329357
26.372612
26.463453
26.052526
26.108749
26.571589
26.498049
26.173637
25.728107
25.628626
26.182291
25.888157
26.242847
25.663231
25.706484
25.914108
26.190935
25.775694
26.117403
26.095779
25.451279
25.710808
25.537788
25.308538
25.818949
25.438309
25.6416
25.222029
24.992779
25.187426
25.464252
25.650251
25.767042
25.862198
25.676205
25.63295
25.321514
26.212564
26.229866
26.640789
26.761906
26.709999
26.67972
26.312052
26.588888
27.159857
26.839764
27.782734
27.306925
25.563744
25.918432
26.420195
25.940062
25.741083
25.524815
25.382067
25.745411
25.927082
25.611322
24.971148
25.235006
24.949522
25.589695
25.844902
26.052526
26.108749
26.567257
26.973095
27.104013
27.26548
27.086557
26.816
27.099653
26.645809
26.855278
27.221844
27.317844
27.466215
27.453127
27.618956
27.732409
27.461855
27.797873
27.618956
27.998611
28.142616
28.208075
28.757917
28.251713
28.334625
28.574644
28.823387
28.552822
28.2299
28.832106
28.696825
28.823387
28.539728
29.019753
29.203033
29.499781
29.434326
29.643793
29.971088
30.062723
30.254732
30.333284
30.429291
30.180538
30.634384
30.726032
30.760935
30.656208
31.101328
30.861315
30.093267
30.512203
31.08823
30.708569
31.105684
29.87944
29.443052
28.484053
28.061739
29.513432
29.223091
29.755388
29.377066
28.633614
29.086725
28.871166
28.312489
27.080748
27.577847
27.067547
27.37109
27.212717
28.633614
28.184916
27.511856
28.475252
28.136522
27.181923
26.623241
27.331491
27.234709
27.854988
28.497252
28.184916
28.849171
29.271486
29.104326
29.324276
29.390259
28.831577
28.638014
27.762606
27.692215
27.665819
26.834398
26.574856
26.856396
26.645235
26.640837
27.745003
28.264099
28.426868
28.057335
28.739197
28.382868
28.418062
27.47666
27.34029
28.435658
28.506046
29.033936
29.759781
30.00173
30.26568
30.283274
30.274481
30.560419
31.286274
30.80237
31.180679
30.903549
30.837044
30.934582
30.743927
29.728598
29.639917
29.400482
29.489174
30.034515
29.817268
29.081257
28.997015
28.824099
28.469395
28.881737
28.961546
29.750759
29.032484
29.187679
30.220741
30.55772
31.027699
30.273956
30.63752
30.730633
31.377958
31.763706
31.63069
31.759266
32.025307
31.945492
32.21595
32.007568
31.958792
31.679461
32.331226
32.269154
32.428772
32.322361
32.278034
32.406601
32.029728
32.810078
33.147034
33.05394
33.346565
33.253464
33.475147
33.803246
33.843151
34.038235
34.087006
33.594856
34.34417
33.993904
33.887501
34.286537
34.273235
34.038235
33.962868
34.007202
33.993904
34.423985
34.534836
35.08461
35.324036
35.310638
34.940086
34.83292
34.8731
34.27932
34.315044
33.743565
33.966793
34.623096
34.547199
34.533806
33.895367
34.730244
34.658813
34.734718
34.806149
35.654423
35.80175
36.074097
35.694607
35.917831
35.645489
35.739243
36.118748
35.922291
36.310719
36.654484
36.368759
36.614304
36.770569
36.82415
36.895588
36.967022
37.065247
37.435806
37.596527
37.435806
37.534027
37.810822
37.248283
37.458122
37.324188
36.752716
36.868809
36.623241
37.060783
36.850929
37.118805
37.141144
36.962555
36.324112
36.676823
37.194714
37.315262
37.855476
37.467045
37.159
37.627769
38.400146
38.016205
38.21711
38.328732
38.435867
38.721607
38.61446
39.07431
39.458271
39.507389
39.444885
39.849205
40.186153
40.496147
39.112423
38.883301
38.613743
39.278656
39.705448
39.417919
39.539219
40.316444
39.790802
39.319084
39.907619
39.557198
38.838375
39.310093
39.462849
38.995621
38.42057
39.157345
39.292122
39.786312
39.575161
39.660519
39.840233
40.18166
40.154697
40.698311
43.097347
42.773888
42.724472
43.34893
43.286034
43.312992
43.160236
42.832287
42.652584
42.122456
41.453053
41.551903
41.623787
41.057716
41.843914
42.472874
42.517807
41.974205
42.216801
42.050575
42.293186
42.531281
42.288681
41.37669
40.608463
40.541065
40.866592
41.268967
41.495029
40.685749
40.559151
39.998531
40.066349
39.523819
40.274326
40.206497
39.808647
39.180214
38.850166
39.48312
39.379139
39.695618
40.10252
39.225418
38.958675
38.398048
38.022785
38.737137
38.18103
38.547237
38.027317
37.905235
38.65575
37.96402
38.027317
38.316666
38.624107
39.66396
39.668488
39.33844
39.406265
39.315845
39.994011
40.301445
41.047443
41.526672
41.363918
41.825081
42.213882
41.648746
40.812332
40.622456
40.658619
39.989483
40.541065
40.107037
40.346661
40.396389
40.681229
40.211033
40.034695
39.148552
38.429691
38.226242
38.067997
37.932365
36.946762
37.362701
35.12022
35.21064
33.224888
35.21064
33.274986
34.117569
34.18589
34.896381
34.249653
34.2952
32.068066
31.371223
31.398552
32.400536
32.742115
32.373199
32.947079
34.381733
34.832626
34.882717
34.172222
33.507275
33.338757
34.16312
34.08569
33.293205
33.302322
34.017368
34.614017
35.260746
35.816391
35.397381
35.306286
33.493618
31.926876
31.343895
32.992611
33.939949
32.564491
32.951622
32.181919
31.280134
32.18647
33.138355
33.57103
33.466274
34.814396
34.709648
35.415596
35.374611
36.303726
35.452023
36.76828
35.907482
36.745502
38.111835
38.439774
37.588078
38.649273
40.502945
40.703342
39.355221
38.530857
39.487286
40.379974
40.311657
40.489285
40.970589
39.155373
39.522083
40.388439
40.01255
40.04007
38.930756
37.913139
38.32111
37.509769
37.253067
36.473812
36.418804
37.839809
38.110256
40.223427
39.673351
38.903263
39.040771
39.164543
38.811581
37.876472
38.476963
37.826046
37.294331
36.762596
36.725925
37.069717
36.272121
37.02845
37.661037
37.752716
38.279861
38.48613
37.949821
38.499878
38.270683
39.017868
39.100365
38.751987
38.85284
38.655731
39.485397
39.696278
40.338013
40.117985
40.35635
41.208939
40.227997
40.759731
40.489285
40.567204
40.988914
40.718468
40.823898
41.011841
41.062263
41.649006
41.163097
41.814014
41.658161
41.836941
41.99279
42.185303
41.635242
41.749847
41.493145
41.488525
42.162018
42.494148
42.424953
42.346542
42.531048
42.28656
42.872406
42.867794
42.092819
42.743248
42.669434
42.263508
41.705345
41.76992
42.872406
42.793983
42.941593
43.504379
43.213757
43.195309
43.172241
43.57357
43.329086
43.425957
42.881622
43.199921
44.011799
44.164024
43.72118
44.140957
44.1917
45.058933
44.136341
43.324474
44.41774
43.476696
42.480305
43.61047
44.66684
44.1548
44.69912
45.363373
45.423344
46.590412
46.72419
46.595024
47.051704
48.052696
48.537056
48.740032
48.546284
49.376617
49.445797
49.450428
48.744644
49.312035
49.404804
49.140404
49.042999
48.792522
47.832348
47.396332
47.196865
45.851688
45.253326
46.171761
46.041878
46.75621
48.333305
47.86018
48.750771
47.433426
47.980774
45.902725
45.350742
45.916641
47.224697
47.58186
48.092098
47.294277
48.310108
47.27108
47.201511
48.305473
48.602345
49.25172
49.18679
47.507645
48.328671
47.002048
47.702465
47.99934
48.008602
49.223904
48.565224
48.64872
48.931675
48.968784
47.948315
47.377781
46.79332
46.691273
47.934399
47.373131
48.300827
48.328671
51.932789
52.809467
51.371521
50.355694
49.859375
50.202625
51.21846
51.482861
50.773163
50.123772
49.928947
50.652565
50.977261
51.728699
51.812626
51.933872
51.677399
51.360302
50.58622
51.029213
51.313663
51.411598
50.903316
50.115227
51.784653
50.824039
50.898647
51.005901
50.777397
51.15979
50.590874
51.304344
50.441658
50.721443
52.693966
52.759266
53.995003
54.03231
53.985672
55.296028
55.417271
55.258728
54.769093
54.671169
55.198112
54.834377
54.470638
53.640587
53.44009
53.733864
53.552002
53.883095
53.454071
54.37738
54.568569
54.997585
54.894989
53.957699
53.794487
53.84111
53.26754
54.158215
54.941624
55.477894
55.533848
54.899662
54.88567
53.878426
54.638515
54.102253
54.148895
54.596546
56.797569
55.920902
56.78825
57.445755
56.527374
55.107635
54.999866
55.042027
55.032661
54.498505
54.001823
54.175194
56.250923
56.953773
57.047478
57.806549
57.637875
57.347359
57.117767
57.464497
58.228256
56.667946
56.372749
55.974464
57.731583
56.869419
58.026775
58.589046
58.359459
58.668705
60.880322
61.006844
62.070469
61.480076
62.970108
62.440632
63.368393
63.134113
62.375027
62.17823
