Adjusted
9.46291
9.403129
9.357154
8.908837
8.881248
9.032984
8.947921
8.904237
8.95022
9.11132
9.11132
9.033072
8.830545
8.805229
8.814437
8.607309
8.28511
8.535965
8.837447
8.724679
8.920304
8.901889
9.180364
9.145844
9.088306
8.987042
9.072195
9.037676
8.782218
8.848957
8.94792
9.081397
9.150441
9.251706
9.343763
9.592315
9.62914
9.69818
9.550891
9.504863
9.412806
9.412806
9.569305
9.631438
9.677466
9.732703
9.606127
9.438119
9.288527
9.113619
9.092908
9.235596
9.221786
9.323051
9.033072
8.927205
9.069892
8.957124
9.104416
9.226393
9.104416
9.263215
9.083703
8.93871
8.770712
8.657941
8.501442
8.522155
8.86737
8.802927
8.82366
8.835184
8.687737
8.91582
9.024095
9.118553
8.987233
8.846702
8.796017
8.775281
8.457358
8.611712
8.528772
8.593278
8.70156
8.602495
8.586368
8.579456
8.738421
8.890477
9.017183
9.102428
9.180756
9.245266
9.169236
9.019495
9.471039
9.521724
9.678384
9.841956
9.775147
9.717548
9.929502
10.019351
10.169102
10.12302
10.129935
10.065426
9.975574
9.989404
10.417913
10.079249
9.809705
9.664563
9.618483
9.519414
9.699118
9.597749
9.712939
9.630005
9.894946
9.671473
9.646132
9.63922
9.530938
9.438787
9.491776
9.275214
9.213014
9.321292
9.063261
9.100123
8.876651
8.83513
8.712865
8.985076
9.158082
9.100414
9.026596
8.945854
8.823592
8.996607
9.02429
8.814367
8.906639
8.945854
8.964312
8.793607
8.888186
8.996607
9.238821
9.148854
9.402607
9.628675
9.564086
9.483346
9.557162
9.596377
9.423368
9.481036
9.582536
9.640208
9.573311
9.527175
9.573311
9.720947
9.780927
9.790156
9.797074
9.792461
9.635592
9.732485
9.589458
9.501802
9.404914
9.409527
9.411835
9.575618
9.427982
9.573311
9.550246
9.612525
9.527175
9.654048
9.515642
9.37954
9.446438
9.628675
9.640208
9.750937
9.810915
9.780927
9.803995
9.771702
9.711721
9.861664
9.868585
9.783235
9.575374
9.700091
9.642351
9.570754
9.707021
9.711637
9.679302
9.69085
9.552276
9.508397
9.612329
9.515328
9.732423
9.757826
9.711637
9.619258
9.619258
9.642351
9.630799
9.658517
9.838662
9.954134
9.931041
9.804019
9.817874
9.834044
9.838662
9.709326
9.630799
9.674685
9.676994
9.686233
9.79709
9.896402
9.780923
10.291332
10.282101
10.358308
10.404501
10.344455
10.418357
10.55924
10.420668
10.552312
10.674714
10.903361
10.838696
10.739387
10.640075
10.80405
10.820221
10.877954
10.829453
10.663166
10.582335
10.762481
10.718599
10.584646
10.556934
10.584646
10.485339
10.515359
10.686451
10.355826
10.478365
10.802052
10.698009
10.642522
10.841359
10.855236
10.776625
10.612466
10.473742
10.473742
10.4275
10.471431
10.277215
9.918839
10.002074
9.978956
10.119994
9.997456
10.198601
10.117678
10.166233
10.06219
9.988202
9.94196
9.951213
10.034446
10.103808
10.175483
10.286463
10.462179
10.503799
10.536165
10.355826
10.524606
10.575474
10.445994
10.291085
10.140802
10.330393
10.429809
10.415936
10.515359
10.496861
10.34195
10.390508
10.346575
10.022882
10.04832
10.168546
10.300335
10.462179
10.610153
10.543105
10.607841
10.603216
10.637901
10.637901
10.882978
11.070256
10.956968
11.000949
11.232452
11.375985
11.59591
11.348204
11.167635
11.334314
11.26949
11.387558
11.672308
11.600542
11.332
11.401447
12.072806
12.505713
12.501083
12.542754
12.475616
12.084379
12.160771
12.269582
12.297359
12.540435
12.651558
12.45478
12.251063
12.142256
12.193184
12.459413
12.628407
12.52192
12.297359
12.369129
12.642296
12.461729
12.248744
12.06354
12.366809
12.274208
12.174663
12.656184
12.639984
13.08446
13.410881
13.489594
13.464128
13.508108
13.647014
14.142427
14.096131
13.910924
13.642385
13.734986
13.822956
13.959539
14.077607
14.272065
14.422544
14.385503
14.482733
14.424861
14.285958
14.49451
14.621962
14.672943
14.654403
14.552442
14.163143
14.232658
14.091305
13.873485
14.193266
14.506095
14.608059
14.726241
14.723926
15.036746
14.230346
13.961539
13.532845
13.718227
13.797015
13.442475
13.222332
13.324291
13.321977
12.837665
13.006824
13.185252
13.254775
13.071712
13.023045
12.995238
13.208426
13.312704
13.206111
13.38686
13.639439
13.653345
13.609317
13.667246
13.648711
13.834091
13.820185
14.170093
14.635866
14.524637
14.619645
14.733191
14.707702
15.15725
15.001994
14.763316
15.027483
14.948702
15.261524
15.055288
15.259212
15.572043
15.646192
16.047079
16.283447
16.132818
16.151371
16.047079
15.799137
15.18684
15.492986
15.444284
15.284248
15.307444
15.833919
15.973083
15.947576
15.975399
16.170218
15.741151
15.08246
15.437321
15.228585
14.940987
15.261057
15.562565
15.67621
15.126537
15.133494
15.344547
15.198437
15.857114
15.655334
15.541684
15.771302
16.070498
16.545956
17.051559
17.174484
17.503822
17.587324
17.464396
17.411051
16.954147
16.346493
16.736128
16.620167
16.193413
16.378962
16.53899
16.165588
16.596975
16.710617
16.991249
16.664232
16.975029
17.035324
17.135059
16.69903
16.791794
16.327938
16.536673
16.529715
16.443895
16.550591
15.435004
15.191474
15.063914
15.286568
15.18684
15.425714
15.527769
15.739021
15.910799
16.238121
16.62579
16.458649
16.509722
16.632753
16.744184
16.69311
16.932217
17.078463
17.178274
17.236317
17.630955
17.786484
17.939692
17.793449
17.865412
18.034872
18.16255
18.571117
18.86129
19.070215
19.074858
19.729488
19.397528
19.864126
20.103235
20.066084
20.504837
21.240717
21.152504
20.416622
20.883223
21.301081
21.723566
21.444996
21.848917
21.644629
20.827509
21.068932
21.249998
20.83679
21.031786
21.509998
22.382837
22.127485
21.635355
20.906427
21.120008
21.022497
20.776434
21.528561
22.628899
23.334608
23.246403
23.199968
23.227825
22.805334
21.9557
22.545345
22.002127
21.286539
21.23542
20.268911
20.807938
21.653624
21.165726
21.872023
22.002127
22.448214
22.188
22.201931
21.974249
22.095064
22.959351
22.54579
22.671255
23.205622
23.103394
23.21492
22.782782
22.740957
21.133198
20.905504
20.831167
21.425938
21.574633
21.932419
22.239117
22.885
23.149862
23.233501
23.484425
23.651711
23.182386
23.972328
23.963036
24.009504
24.213953
23.660997
24.376593
25.161894
25.171175
25.436045
25.74737
25.831007
26.040108
26.09123
26.639536
26.253859
26.416489
26.356087
25.975061
26.365381
26.021526
26.239922
26.393263
27.17391
27.856976
27.420181
28.042845
28.093964
28.080013
28.507515
28.251772
27.493874
27.284628
27.028898
27.968142
28.214586
28.005344
29.539749
29.897785
30.386
29.660639
28.293629
28.409861
28.46567
29.130587
28.828339
29.009687
28.805094
28.874838
28.712105
29.36307
29.804792
29.614149
29.284018
28.451714
27.782152
27.921648
28.400558
28.554012
28.363367
28.684206
28.670252
28.112288
28.707455
29.386314
29.679247
30.906776
30.339506
30.771933
30.86957
31.381033
32.785255
32.538837
31.827427
32.176159
32.594624
32.855019
33.803547
33.343239
34.426624
34.356876
33.682659
34.654457
34.807911
35.310074
35.249619
34.826511
36.309772
34.863697
33.208393
31.339195
32.115711
31.515875
32.715538
31.753025
30.659698
31.138901
32.013554
29.98045
30.859758
28.412567
28.496309
29.83156
31.180761
30.729488
29.724554
30.715527
31.534372
31.604151
32.799816
33.418606
31.850731
30.924887
30.87372
30.608521
29.426798
29.840866
29.54776
30.766708
32.432278
32.367153
32.041477
33.562847
33.883846
33.227844
33.916424
32.050793
33.051064
33.381397
34.74456
34.981831
35.251667
35.293552
35.521523
36.591591
35.675049
36.661369
36.828861
37.610466
37.56395
36.126328
35.828587
36.084454
35.763454
35.381954
35.349384
33.800098
34.544502
34.135082
34.135082
36.740463
36.777679
35.395897
36.196129
36.363609
36.289181
36.465961
36.44735
37.327106
38.421001
37.476063
39.114578
39.477642
39.36594
38.74683
37.811214
37.303848
37.420212
38.830627
39.351948
38.611847
37.569164
36.824383
37.355034
34.445782
34.417839
32.723492
32.290569
31.773903
32.123005
32.276623
33.542744
33.305344
33.808044
32.839848
32.514015
32.653656
31.787863
31.373571
31.815792
32.267323
32.746761
31.010498
30.37278
31.071011
30.396061
30.479845
31.50856
32.262646
32.765366
33.957001
33.775463
31.885618
31.871639
32.323166
32.830544
33.491524
33.472912
33.775463
34.329391
34.459743
33.514786
33.468258
34.02684
34.631973
34.715729
33.547375
34.399216
33.947327
33.588623
33.528053
34.32468
35.955215
36.61673
35.70829
36.048374
35.03278
34.161633
33.388317
32.815296
32.717468
33.453529
33.970634
33.490791
33.285805
35.549896
34.729973
34.77655
35.275047
34.175606
32.111843
30.779478
30.979795
29.698673
28.911373
29.209522
29.298033
28.957956
28.552658
29.116344
29.638111
29.3027
30.588472
30.723572
30.704943
29.312014
29.857061
28.534021
28.324383
27.835226
26.777721
26.721819
28.156677
29.176908
29.367916
27.509127
27.527761
28.352341
28.254511
30.080679
30.560522
30.784134
30.947178
31.883575
32.302853
33.024925
33.369663
33.113457
32.177044
32.405327
32.843239
32.726791
32.40506
32.708138
31.449226
31.183458
31.700987
31.006279
30.027134
31.41193
32.34911
33.491444
32.927265
33.598682
34.573166
33.304932
33.020515
32.335106
32.44701
32.591557
32.241863
32.787395
32.591557
31.770945
30.833759
30.866405
30.456091
30.512043
30.931681
31.015614
31.304689
30.675234
31.430565
32.232533
31.626406
30.600632
30.395481
30.222961
30.745182
31.057558
29.444307
29.374372
28.390562
27.868341
27.891659
28.339273
27.378773
27.900986
29.229824
28.861479
28.437187
29.141239
28.9967
29.514246
29.93854
30.446768
29.789333
30.3302
30.097063
28.954742
29.351057
29.598169
29.518908
29.29044
29.700752
29.047979
29.705416
30.307455
31.37619
30.895498
30.830149
31.390196
30.918825
30.853491
32.169567
32.827618
32.360924
31.740232
31.268864
31.049517
30.811483
30.685482
31.329523
31.217518
30.918825
31.57221
32.300251
31.483532
31.250193
31.581541
31.954903
30.76948
31.875572
31.838236
32.458939
32.463608
32.421612
32.169567
33.121651
33.63036
32.916302
32.962975
32.28159
32.35627
32.365585
32.174252
32.04826
31.91757
31.861572
32.029575
32.584949
32.024918
30.559473
31.002831
30.340124
30.335451
30.01343
29.476732
29.71475
29.719408
29.145367
28.30998
28.328653
29.252714
29.052036
28.678675
28.459328
27.983286
29.095146
28.978357
29.043758
28.82419
30.239708
30.333134
31.529081
31.468357
30.347162
30.632122
30.379854
31.79538
32.295242
32.510136
32.089691
31.743982
31.365582
31.089964
31.117979
31.099298
30.384531
30.725559
30.889078
30.734894
31.300177
31.019888
31.440319
32.0056
31.701944
32.50547
31.580471
31.64588
31.323542
30.795635
30.272408
30.926441
31.398285
31.286158
31.258135
30.889078
30.772278
31.482368
31.174046
30.664839
31.197395
31.734648
32.570869
33.262272
33.379074
33.860249
33.621994
33.481834
33.575283
33.327682
33.916321
34.135872
34.640411
34.920723
34.752537
35.462627
35.135616
36.089779
36.005573
36.178627
35.505119
34.915783
34.368538
34.602421
34.709984
34.794174
35.266579
34.845627
34.728691
34.349834
35.444309
36.20673
36.492016
35.977524
36.075756
35.897991
35.519154
34.864338
35.505119
36.066391
35.453671
35.383507
35.87463
36.702503
36.730553
36.26284
36.258156
35.463005
35.832523
35.467728
36.3517
35.968163
36.080421
36.908306
36.454609
35.753006
35.028042
35.238518
35.388203
35.458351
36.225422
37.422791
37.647305
37.539734
37.160862
35.912033
36.903637
35.837204
34.812878
33.985008
34.546268
33.886776
34.172104
34.672562
34.929806
34.920464
35.05143
34.87838
34.6866
34.808205
34.887714
35.07972
34.208687
34.0401
35.182743
35.683815
35.135906
33.759136
32.911522
33.361076
32.756989
32.363625
33.290836
32.82724
33.524979
34.250839
33.000496
33.023918
33.712303
34.302345
34.246162
33.712303
33.478168
32.939621
32.162266
32.312119
33.520313
32.677387
31.885965
31.235035
31.40831
31.792311
31.3006
30.766752
31.244419
31.253765
31.544119
32.372986
32.494743
33.108215
32.733574
32.930264
33.38451
33.960495
33.585869
33.880894
33.646736
34.583317
34.756577
34.573963
34.883034
34.541195
34.124409
33.890247
33.894939
33.871513
34.311714
34.981373
34.878368
35.847717
36.25045
35.828979
36.648495
37.252594
37.884777
38.104893
38.283031
38.292408
38.217384
38.522125
37.411049
36.750034
36.299969
36.825043
37.865795
38.400238
38.681519
40.29422
41.536568
40.598946
41.006802
40.786472
41.475616
40.645836
41.311535
40.978691
39.516003
40.15826
40.903667
39.895733
39.980122
39.370663
39.248787
38.653385
39.211281
38.864357
38.676819
39.234711
39.009686
38.808109
38.822144
38.80341
39.96138
41.639706
41.330296
41.592827
41.241219
42.610142
42.394493
41.419373
40.941193
40.950565
41.40062
42.052269
42.394493
42.671097
42.324184
42.014751
42.624214
