Adjusted
17.755266
17.734642
18.023239
17.899565
17.562868
17.930479
18.088518
17.899565
17.964834
17.813671
18.078209
17.906422
17.490725
17.250231
17.497587
17.023476
16.515007
16.789862
16.80703
16.281382
16.776114
16.868877
16.755497
16.765802
16.576849
16.387886
16.518433
16.291691
16.147394
16.289557
16.428247
16.809652
16.605082
16.327694
16.61202
16.209812
16.088448
16.161264
16.241013
16.088448
16.012171
15.481668
15.401912
15.013576
15.131461
14.864475
14.78473
15.072518
15.582215
15.634221
16.091913
16.435183
16.449057
16.442118
17.333225
16.521866
16.546143
16.379702
16.185537
16.130062
15.630762
16.043375
16.483728
16.026045
15.994833
16.22368
15.897742
15.599554
15.915086
15.817991
15.908144
16.07111
15.772917
15.977501
15.956695
16.417847
16.591211
16.459454
16.012171
16.521866
16.660561
16.820055
16.79232
16.965693
16.879004
16.910212
16.681364
16.408468
16.586905
16.849298
16.856293
16.635883
16.810814
16.828297
16.53792
16.53792
16.628883
16.751339
16.758333
17.055716
17.031229
16.831802
17.013737
17.146683
17.241138
17.695963
17.51404
17.388084
17.083704
17.20965
17.493034
17.853401
17.657469
17.965357
18.168266
17.912876
17.930365
18.042324
17.800915
17.842905
17.800915
18.084305
17.839405
17.751938
17.384586
17.493034
17.195662
17.580509
17.573511
17.454557
17.283123
17.433565
17.49654
17.563021
17.552513
17.926868
18.336203
18.54262
18.871496
18.74555
18.892487
19.413774
19.340303
19.462759
19.557217
19.756641
19.445259
19.28083
19.074409
18.972958
18.673195
18.95179
18.95532
19.173964
19.096386
19.346767
19.357349
19.664162
19.833443
19.717062
19.819328
19.526623
19.434929
19.332659
19.23745
19.420824
19.364399
19.554842
19.706482
19.466673
19.318554
19.551313
19.212759
18.807205
18.828367
19.195127
18.912994
19.244501
19.096386
19.371452
19.346767
19.001167
19.23745
18.669664
18.507444
18.419287
18.729622
18.415756
18.676718
18.807205
19.068169
19.240974
19.385559
19.33972
19.318554
19.138704
19.494884
19.410244
19.505465
19.516047
19.635952
19.632421
19.660631
19.396143
19.646532
19.724108
19.773491
20.05208
20.12261
20.517588
20.330683
20.535227
20.499962
20.464691
20.56419
20.709881
20.450478
20.61039
20.720545
20.681454
20.645922
20.40073
20.194632
20.347425
20.141319
20.183968
20.667244
20.649479
20.859138
20.777403
21.719086
21.445471
21.463228
21.662233
21.420586
21.772387
22.202368
21.761724
21.896757
22.294754
22.287649
22.291197
22.468878
22.703403
22.454659
22.65366
22.547052
22.497305
22.710512
22.891737
22.58614
22.749605
22.614569
22.955708
22.72473
22.614569
22.795797
22.305412
22.564821
22.529276
22.57548
22.507963
21.832794
21.555622
21.473888
21.072344
20.873348
21.008383
20.965736
20.823599
20.624596
20.692118
20.624596
20.308336
20.215944
20.517998
20.859138
21.036812
21.19672
21.566286
21.519753
21.118839
21.269188
21.047256
21.240553
21.079477
21.090212
21.075897
21.301399
21.047256
21.007881
21.262033
21.007881
20.954193
20.993563
20.950613
20.904085
20.725107
20.163137
20.188192
20.649942
20.245461
20.33853
20.499599
20.238302
20.105856
19.848141
19.898249
19.751493
20.227564
20.10944
20.646362
20.732265
20.868296
21.179697
21.50185
21.469641
21.448162
21.236971
21.380152
21.469641
21.226231
21.269188
21.730938
21.927811
22.164051
21.831165
21.956442
22.37882
22.217743
22.164051
22.25712
21.598499
21.340769
21.229816
21.179697
21.15822
21.247711
21.337877
20.778824
20.486666
20.70669
20.685053
20.948339
20.959167
20.551592
20.584055
20.519133
20.522745
21.016874
20.955559
21.373951
21.435266
21.586752
21.568714
21.557901
21.727415
21.38838
21.70578
22.037603
22.030388
21.933006
21.994314
21.608395
21.648066
21.741842
21.734629
22.185484
22.109734
22.192694
22.427134
22.225157
22.290077
22.163839
22.668793
22.538944
22.091707
21.839228
21.943827
21.850052
21.79594
22.055637
22.18187
22.153027
22.239582
21.933006
21.543465
21.366726
21.283779
20.95195
20.95195
20.876205
20.901451
21.143112
21.20443
21.438871
21.262138
21.453306
21.337877
21.561502
20.930315
20.58499
20.704935
21.144781
21.184763
20.737656
20.595892
21.359238
21.482826
21.708199
21.635502
21.73728
21.410133
21.679123
21.871773
21.915396
21.77363
21.671846
21.726379
21.610052
22.108053
22.060793
22.108053
21.875412
21.817249
21.791803
21.875412
21.668217
21.613695
21.73728
21.610052
21.580973
21.639137
21.450111
21.326527
21.686394
21.620966
21.959017
22.271627
22.275259
22.558792
22.613317
22.464289
22.616943
22.315248
22.158943
22.191652
22.049891
21.4174
21.780895
22.006271
22.006271
21.628223
21.817249
21.871773
21.857237
22.15167
22.507902
22.856871
22.69692
23.173105
23.136755
23.136755
23.492981
24.023689
23.925545
24.013388
24.26593
24.156128
24.430635
24.518469
24.474543
24.324495
24.47089
24.63925
24.522129
24.668537
24.551414
24.668537
24.862518
24.888132
24.694151
25.089439
24.888132
24.745399
24.807617
24.12685
24.163445
24.079275
23.823063
24.284224
24.580694
24.71245
24.577038
24.302528
24.485533
24.888132
24.877151
24.884464
24.785656
24.950352
24.895451
24.928398
24.946688
24.613634
24.057314
23.716925
24.05365
24.170765
24.104887
23.899929
24.185411
24.115868
24.200056
24.232988
24.342798
24.317171
24.478207
24.357424
24.701473
24.833237
24.858854
24.840555
25.173607
25.309042
25.484715
25.418839
25.748245
25.912947
26.019081
25.766548
25.967838
26.114241
26.117907
26.385077
26.30821
26.267712
26.326639
25.862574
26.381876
26.485008
26.868053
26.499741
26.683889
26.510792
26.643387
27.052204
27.063246
27.181114
27.125866
26.963808
26.868053
27.004322
26.890144
26.455547
26.588133
26.41503
26.308212
26.315588
25.969378
26.076193
26.009903
25.582655
26.149849
26.341368
25.932541
26.109337
26.1388
26.32296
26.396616
25.814686
25.475851
25.744719
25.151737
24.52561
23.928951
24.09469
24.547716
24.216236
24.84236
24.897602
25.210665
24.477734
24.404072
24.356186
24.879194
25.044933
25.096485
25.409544
25.38377
25.546936
25.435682
24.979563
24.879433
24.204508
23.918964
24.045046
24.45668
24.938763
24.686604
24.512302
24.868305
24.775591
24.471514
24.512302
24.45668
24.249016
24.664356
24.541975
24.260136
24.241598
24.223051
24.178549
24.048759
24.156298
24.215639
24.245302
24.378801
24.834932
24.697718
24.40476
24.249016
24.204508
23.759506
23.355299
23.418337
23.781761
23.663084
23.273705
23.366421
23.336756
23.095713
22.991869
23.388674
23.915255
23.822546
23.622292
23.800297
23.796589
23.670504
23.985718
24.386215
23.889299
24.319468
24.048759
23.841085
24.271261
24.549385
24.115507
24.134052
24.434435
24.623554
24.137753
23.974586
24.064236
24.168833
24.120274
24.508772
24.124008
24.206198
23.716843
23.716843
23.582361
23.948439
23.914825
23.776611
23.604771
23.444149
23.320871
23.50765
23.373177
23.526323
23.49271
23.500181
23.485235
23.552473
23.496449
23.440416
23.533802
23.201334
23.12289
22.969734
23.216278
23.081799
22.547623
22.08816
22.114302
22.248775
22.020906
21.85281
21.64362
21.849077
22.110556
21.729538
21.438173
21.113182
20.967491
21.404551
21.090767
20.900259
20.903986
20.993647
21.240185
21.296221
21.139328
21.311157
21.576385
21.766893
22.091883
21.6623
21.778099
21.63615
22.189007
22.401932
22.383255
22.62233
22.398193
22.33843
22.420607
22.262474
22.247417
22.680401
22.665342
22.759468
22.812178
22.5938
22.748169
22.932648
23.237623
23.380688
23.248915
23.041842
22.86865
23.117138
22.864883
23.117138
22.902533
22.646515
22.691694
22.495913
22.349075
21.961285
21.78056
21.757973
21.411591
21.317457
21.336287
21.517014
21.404055
21.490662
21.739149
21.829502
21.746672
21.754208
21.791853
21.799391
21.83703
22.14201
22.20977
22.477089
22.684158
22.469561
22.367907
22.01399
22.01399
21.874685
21.693968
21.863392
21.468071
21.919867
22.115658
22.224836
22.349075
22.39426
22.31143
22.401789
22.232361
21.83703
21.641258
21.59984
21.430414
21.573484
21.746672
21.795622
21.927395
22.646515
22.627546
22.836246
22.794502
22.646515
22.654104
22.544058
22.551649
22.862808
23.007011
23.538258
23.602768
23.625532
23.617945
23.443392
23.291605
23.109465
23.268843
23.340939
23.617945
24.058126
24.266829
24.027767
24.012583
23.963261
23.959465
23.87978
23.959465
23.709015
23.788704
24.01638
23.970852
24.039152
24.217501
24.464153
24.521076
24.422413
23.974648
23.90255
23.762142
24.01638
24.050539
24.088482
23.944292
23.970852
24.991613
25.272411
25.306562
25.458351
25.564608
25.538044
25.469738
25.496304
25.761925
25.936476
25.830233
25.909918
26.062775
26.104811
26.165956
26.123924
25.718843
25.478085
25.630955
25.145618
24.923965
25.01186
24.580034
24.59914
24.606777
24.687035
24.820787
24.438631
24.587679
24.824608
24.920147
24.518887
24.652639
24.465385
24.515062
24.38513
24.236094
23.97241
24.228453
24.897213
24.740532
24.113808
24.083229
24.259026
24.44628
24.541815
24.897213
24.301056
24.331635
24.958363
25.22204
25.344345
25.164719
24.985106
24.858999
25.409296
25.447519
25.080645
24.220806
24.102345
24.186415
24.255203
24.950724
24.530352
23.697258
24.083229
24.21316
23.922726
23.425928
23.70108
23.517651
23.364788
23.693436
23.918911
23.922726
24.006802
23.872021
23.779606
23.864319
23.614002
23.848907
24.349543
24.877123
24.553638
24.52668
24.545933
24.391895
24.280218
24.16469
24.091518
24.234007
24.268667
24.260967
24.399597
24.784693
24.692274
24.57674
24.630651
25.004204
24.934879
25.354631
25.551035
25.462461
25.416246
25.497116
25.516375
25.974638
25.647303
25.462461
25.724329
26.101715
25.924582
26.221096
25.832151
25.778236
25.681953
25.843704
25.963078
26.070911
26.117117
26.059357
26.301966
26.490662
26.409788
26.667807
26.571537
26.363585
26.074762
26.290413
26.679361
26.50222
26.44445
26.459852
26.244202
26.556126
26.340475
26.113266
26.174885
25.936123
26.144079
26.240347
26.0891
25.914581
26.096863
26.442022
26.453655
26.616543
26.818211
25.453062
25.127291
25.232
25.224245
25.189342
24.917862
24.879078
24.972157
24.937256
24.972157
25.359985
25.736176
25.526756
25.480207
25.507357
25.356112
25.220367
25.123409
25.4104
25.627586
25.495729
25.666372
25.394894
25.220367
24.917862
25.185465
25.220367
25.107901
24.902349
25.030331
25.022573
25.104027
24.937256
25.286301
25.321207
25.76333
26.01153
26.096863
26.306284
25.600441
25.654732
25.391016
25.612074
25.689632
25.480207
25.259148
25.352228
25.468571
25.70903
26.302399
26.259739
26.01153
26.341185
26.50407
26.217081
26.333426
26.352818
26.686352
26.803543
26.8309
26.647289
26.643383
26.670725
26.34647
26.463667
26.56525
25.819073
25.88158
25.780012
25.584677
25.428406
25.744844
25.596388
25.979246
26.553522
26.842617
26.487112
26.666822
26.948105
26.971527
27.467688
27.823191
28.182606
28.08102
28.237291
28.241207
27.963821
27.616133
27.584888
27.467688
27.577068
27.815371
27.862247
27.760677
28.053684
27.694263
27.56535
27.877884
27.737244
28.170887
27.651291
27.705988
29.495243
29.397575
29.30772
28.999088
29.292097
29.065498
29.190516
28.74906
28.620146
28.917049
29.30772
29.221764
29.612429
29.435472
29.738277
29.234913
29.352884
29.293888
29.368614
29.498392
29.691086
30.599512
30.662439
30.627037
30.422556
30.107943
30.324236
30.045023
30.28491
29.962439
30.033226
29.970303
30.02536
29.797264
29.018618
29.187721
29.18379
28.688278
29.191648
29.305687
29.486597
29.419737
29.419737
29.18379
29.341089
28.936033
29.030416
29.057943
29.616371
29.313564
29.930975
30.261312
30.096149
30.450087
30.30064
30.627037
30.166931
30.261312
30.80794
30.992779
30.953451
31.69277
31.625933
31.657366
31.70458
32.325924
31.932669
31.594463
30.556252
29.907377
30.414688
29.993893
31.043905
30.894461
29.997829
30.69783
30.540535
30.28714
28.580774
29.475531
29.800177
28.616396
27.9394
28.248211
28.652035
29.051908
28.849997
28.96876
28.81436
29.29738
29.000441
28.220491
29.055861
29.099417
29.040024
29.150888
28.889587
29.222137
28.149223
28.25613
28.723303
29.495325
29.697233
29.234018
29.166716
29.970421
30.635542
29.756624
29.693285
29.530954
29.76059
29.930826
30.152538
29.911032
30.449467
30.188166
30.20005
30.433638
31.090847
30.663265
30.952282
30.983944
30.936438
31.300684
30.873091
31.10668
30.762241
29.839775
29.35676
29.483446
29.60618
29.499281
29.075659
29.115252
29.329037
28.838112
29.590345
28.88562
29.012314
28.691631
29.190479
28.101963
28.560493
27.619505
27.308498
27.352364
27.145025
26.857948
26.630676
26.088413
26.415367
26.080439
26.515045
26.315689
26.315689
27.368319
27.276611
27.368319
27.284576
27.141043
27.420145
27.51185
28.022209
28.249487
27.328444
27.755074
28.109932
27.671335
27.113132
27.691271
27.388248
27.83482
28.596382
28.628275
28.652199
28.149811
28.082027
